radius,num_clust,max_clust_size,max_normalized,mean_clust_size,median_clust_size
2,387,10,0.0193050193050193,1.33850129198966,1
3,302,23,0.0444015444015444,1.71523178807947,1
4,258,30,0.0579150579150579,2.0077519379845,1
5,233,30,0.0579150579150579,2.22317596566524,1
6,210,39,0.0752895752895753,2.46666666666667,1
7,186,41,0.0791505791505791,2.78494623655914,1
8,165,45,0.0868725868725869,3.13939393939394,1
9,148,45,0.0868725868725869,3.5,1
10,130,45,0.0868725868725869,3.98461538461538,2
11,115,45,0.0868725868725869,4.50434782608696,2
12,101,46,0.0888030888030888,5.12871287128713,2
13,93,46,0.0888030888030888,5.56989247311828,2
14,81,46,0.0888030888030888,6.39506172839506,2
15,76,87,0.167953667953668,6.81578947368421,2
16,66,127,0.245173745173745,7.84848484848485,2
17,61,135,0.260617760617761,8.49180327868852,2
18,57,142,0.274131274131274,9.08771929824561,2
19,54,145,0.27992277992278,9.59259259259259,2
20,48,203,0.391891891891892,10.7916666666667,2
21,47,203,0.391891891891892,11.0212765957447,2
22,43,203,0.391891891891892,12.046511627907,3
23,43,203,0.391891891891892,12.046511627907,3
24,41,216,0.416988416988417,12.6341463414634,2
25,38,216,0.416988416988417,13.6315789473684,2
26,36,263,0.507722007722008,14.3888888888889,2
27,34,263,0.507722007722008,15.2352941176471,2
28,33,263,0.507722007722008,15.6969696969697,2
29,31,291,0.561776061776062,16.7096774193548,2
30,31,291,0.561776061776062,16.7096774193548,2
31,30,291,0.561776061776062,17.2666666666667,2
32,30,291,0.561776061776062,17.2666666666667,2
33,29,291,0.561776061776062,17.8620689655172,2
34,29,291,0.561776061776062,17.8620689655172,2
35,28,291,0.561776061776062,18.5,2
36,27,292,0.563706563706564,19.1851851851852,2
37,26,295,0.569498069498069,19.9230769230769,2
38,26,295,0.569498069498069,19.9230769230769,2
39,26,295,0.569498069498069,19.9230769230769,2
40,26,295,0.569498069498069,19.9230769230769,2
41,26,295,0.569498069498069,19.9230769230769,2
42,26,295,0.569498069498069,19.9230769230769,2
43,26,295,0.569498069498069,19.9230769230769,2
44,26,295,0.569498069498069,19.9230769230769,2
45,26,295,0.569498069498069,19.9230769230769,2
46,26,295,0.569498069498069,19.9230769230769,2
47,26,295,0.569498069498069,19.9230769230769,2
48,26,295,0.569498069498069,19.9230769230769,2
49,26,295,0.569498069498069,19.9230769230769,2
50,26,295,0.569498069498069,19.9230769230769,2
51,24,295,0.569498069498069,21.5833333333333,3
52,23,295,0.569498069498069,22.5217391304348,4
53,23,295,0.569498069498069,22.5217391304348,4
54,23,295,0.569498069498069,22.5217391304348,4
55,23,295,0.569498069498069,22.5217391304348,4
56,22,295,0.569498069498069,23.5454545454545,4
57,22,295,0.569498069498069,23.5454545454545,4
58,20,295,0.569498069498069,25.9,5
59,20,295,0.569498069498069,25.9,5
60,20,295,0.569498069498069,25.9,5
61,20,295,0.569498069498069,25.9,5
62,20,295,0.569498069498069,25.9,5
63,20,295,0.569498069498069,25.9,5
64,19,295,0.569498069498069,27.2631578947368,6
65,19,295,0.569498069498069,27.2631578947368,6
66,19,295,0.569498069498069,27.2631578947368,6
67,19,295,0.569498069498069,27.2631578947368,6
68,18,295,0.569498069498069,28.7777777777778,5.5
69,18,295,0.569498069498069,28.7777777777778,5.5
70,18,295,0.569498069498069,28.7777777777778,5.5
71,18,295,0.569498069498069,28.7777777777778,5.5
72,18,295,0.569498069498069,28.7777777777778,5.5
73,18,295,0.569498069498069,28.7777777777778,5.5
74,18,295,0.569498069498069,28.7777777777778,5.5
75,18,295,0.569498069498069,28.7777777777778,5.5
76,18,295,0.569498069498069,28.7777777777778,5.5
77,18,295,0.569498069498069,28.7777777777778,5.5
78,18,295,0.569498069498069,28.7777777777778,5.5
79,18,295,0.569498069498069,28.7777777777778,5.5
80,17,295,0.569498069498069,30.4705882352941,7
81,17,295,0.569498069498069,30.4705882352941,7
82,17,295,0.569498069498069,30.4705882352941,7
83,17,295,0.569498069498069,30.4705882352941,7
84,17,295,0.569498069498069,30.4705882352941,7
85,17,295,0.569498069498069,30.4705882352941,7
86,17,295,0.569498069498069,30.4705882352941,7
87,17,295,0.569498069498069,30.4705882352941,7
88,17,295,0.569498069498069,30.4705882352941,7
89,17,295,0.569498069498069,30.4705882352941,7
90,17,295,0.569498069498069,30.4705882352941,7
91,17,295,0.569498069498069,30.4705882352941,7
92,17,295,0.569498069498069,30.4705882352941,7
93,17,295,0.569498069498069,30.4705882352941,7
94,17,295,0.569498069498069,30.4705882352941,7
95,17,295,0.569498069498069,30.4705882352941,7
96,17,295,0.569498069498069,30.4705882352941,7
97,17,295,0.569498069498069,30.4705882352941,7
98,17,295,0.569498069498069,30.4705882352941,7
99,17,295,0.569498069498069,30.4705882352941,7
100,17,295,0.569498069498069,30.4705882352941,7
101,17,295,0.569498069498069,30.4705882352941,7
102,17,295,0.569498069498069,30.4705882352941,7
103,17,295,0.569498069498069,30.4705882352941,7
104,17,295,0.569498069498069,30.4705882352941,7
105,17,295,0.569498069498069,30.4705882352941,7
106,17,295,0.569498069498069,30.4705882352941,7
107,17,295,0.569498069498069,30.4705882352941,7
108,17,295,0.569498069498069,30.4705882352941,7
109,17,295,0.569498069498069,30.4705882352941,7
110,17,295,0.569498069498069,30.4705882352941,7
111,17,295,0.569498069498069,30.4705882352941,7
112,17,295,0.569498069498069,30.4705882352941,7
113,17,295,0.569498069498069,30.4705882352941,7
114,17,295,0.569498069498069,30.4705882352941,7
115,17,295,0.569498069498069,30.4705882352941,7
116,17,295,0.569498069498069,30.4705882352941,7
117,17,295,0.569498069498069,30.4705882352941,7
118,17,295,0.569498069498069,30.4705882352941,7
119,17,295,0.569498069498069,30.4705882352941,7
120,17,295,0.569498069498069,30.4705882352941,7
121,17,295,0.569498069498069,30.4705882352941,7
122,17,295,0.569498069498069,30.4705882352941,7
123,17,295,0.569498069498069,30.4705882352941,7
124,17,295,0.569498069498069,30.4705882352941,7
125,17,295,0.569498069498069,30.4705882352941,7
126,17,295,0.569498069498069,30.4705882352941,7
127,17,295,0.569498069498069,30.4705882352941,7
128,17,295,0.569498069498069,30.4705882352941,7
129,17,295,0.569498069498069,30.4705882352941,7
130,17,295,0.569498069498069,30.4705882352941,7
131,16,295,0.569498069498069,32.375,7
132,16,295,0.569498069498069,32.375,7
133,16,295,0.569498069498069,32.375,7
134,16,295,0.569498069498069,32.375,7
135,16,295,0.569498069498069,32.375,7
136,16,295,0.569498069498069,32.375,7
137,15,295,0.569498069498069,34.5333333333333,7
138,15,295,0.569498069498069,34.5333333333333,7
139,15,295,0.569498069498069,34.5333333333333,7
140,15,295,0.569498069498069,34.5333333333333,7
141,15,295,0.569498069498069,34.5333333333333,7
142,15,295,0.569498069498069,34.5333333333333,7
143,15,295,0.569498069498069,34.5333333333333,7
144,15,295,0.569498069498069,34.5333333333333,7
145,15,295,0.569498069498069,34.5333333333333,7
146,15,295,0.569498069498069,34.5333333333333,7
147,15,295,0.569498069498069,34.5333333333333,7
148,15,295,0.569498069498069,34.5333333333333,7
149,15,295,0.569498069498069,34.5333333333333,7
150,15,295,0.569498069498069,34.5333333333333,7
151,15,295,0.569498069498069,34.5333333333333,7
152,15,295,0.569498069498069,34.5333333333333,7
153,15,295,0.569498069498069,34.5333333333333,7
154,15,295,0.569498069498069,34.5333333333333,7
155,15,295,0.569498069498069,34.5333333333333,7
156,15,295,0.569498069498069,34.5333333333333,7
157,15,295,0.569498069498069,34.5333333333333,7
158,14,295,0.569498069498069,37,8
159,14,295,0.569498069498069,37,8
160,14,295,0.569498069498069,37,8
161,14,295,0.569498069498069,37,8
162,14,295,0.569498069498069,37,8
163,14,295,0.569498069498069,37,8
164,14,295,0.569498069498069,37,8
165,14,295,0.569498069498069,37,8
166,14,295,0.569498069498069,37,8
167,14,295,0.569498069498069,37,8
168,13,326,0.629343629343629,39.8461538461538,7
169,13,326,0.629343629343629,39.8461538461538,7
170,12,326,0.629343629343629,43.1666666666667,8
171,12,326,0.629343629343629,43.1666666666667,8
172,12,326,0.629343629343629,43.1666666666667,8
173,12,326,0.629343629343629,43.1666666666667,8
174,12,326,0.629343629343629,43.1666666666667,8
175,11,326,0.629343629343629,47.0909090909091,7
176,10,326,0.629343629343629,51.8,7
177,10,326,0.629343629343629,51.8,7
178,10,326,0.629343629343629,51.8,7
179,10,326,0.629343629343629,51.8,7
180,10,326,0.629343629343629,51.8,7
181,10,326,0.629343629343629,51.8,7
182,10,326,0.629343629343629,51.8,7
183,10,326,0.629343629343629,51.8,7
184,10,326,0.629343629343629,51.8,7
185,10,326,0.629343629343629,51.8,7
186,10,326,0.629343629343629,51.8,7
187,10,326,0.629343629343629,51.8,7
188,10,326,0.629343629343629,51.8,7
189,10,326,0.629343629343629,51.8,7
190,10,326,0.629343629343629,51.8,7
191,10,326,0.629343629343629,51.8,7
192,10,326,0.629343629343629,51.8,7
193,10,326,0.629343629343629,51.8,7
194,10,326,0.629343629343629,51.8,7
195,10,326,0.629343629343629,51.8,7
196,10,326,0.629343629343629,51.8,7
197,10,326,0.629343629343629,51.8,7
198,10,326,0.629343629343629,51.8,7
199,10,326,0.629343629343629,51.8,7
200,10,326,0.629343629343629,51.8,7
201,10,326,0.629343629343629,51.8,7
202,10,326,0.629343629343629,51.8,7
203,10,326,0.629343629343629,51.8,7
204,10,326,0.629343629343629,51.8,7
205,10,326,0.629343629343629,51.8,7
206,10,326,0.629343629343629,51.8,7
207,10,326,0.629343629343629,51.8,7
208,10,326,0.629343629343629,51.8,7
209,10,326,0.629343629343629,51.8,7
210,10,326,0.629343629343629,51.8,7
211,10,326,0.629343629343629,51.8,7
212,10,326,0.629343629343629,51.8,7
213,10,326,0.629343629343629,51.8,7
214,10,326,0.629343629343629,51.8,7
215,10,326,0.629343629343629,51.8,7
216,10,326,0.629343629343629,51.8,7
217,10,326,0.629343629343629,51.8,7
218,10,326,0.629343629343629,51.8,7
219,10,326,0.629343629343629,51.8,7
220,10,326,0.629343629343629,51.8,7
221,10,326,0.629343629343629,51.8,7
222,10,326,0.629343629343629,51.8,7
223,10,326,0.629343629343629,51.8,7
224,10,326,0.629343629343629,51.8,7
225,10,326,0.629343629343629,51.8,7
226,10,326,0.629343629343629,51.8,7
227,10,326,0.629343629343629,51.8,7
228,10,326,0.629343629343629,51.8,7
229,10,326,0.629343629343629,51.8,7
230,10,326,0.629343629343629,51.8,7
231,9,326,0.629343629343629,57.5555555555556,7
232,9,326,0.629343629343629,57.5555555555556,7
233,9,326,0.629343629343629,57.5555555555556,7
234,9,326,0.629343629343629,57.5555555555556,7
235,9,326,0.629343629343629,57.5555555555556,7
236,9,326,0.629343629343629,57.5555555555556,7
237,9,326,0.629343629343629,57.5555555555556,7
238,9,326,0.629343629343629,57.5555555555556,7
239,9,326,0.629343629343629,57.5555555555556,7
240,9,326,0.629343629343629,57.5555555555556,7
241,9,326,0.629343629343629,57.5555555555556,7
242,9,326,0.629343629343629,57.5555555555556,7
243,9,326,0.629343629343629,57.5555555555556,7
244,9,326,0.629343629343629,57.5555555555556,7
245,9,326,0.629343629343629,57.5555555555556,7
246,9,326,0.629343629343629,57.5555555555556,7
247,9,326,0.629343629343629,57.5555555555556,7
248,9,326,0.629343629343629,57.5555555555556,7
249,9,326,0.629343629343629,57.5555555555556,7
250,9,326,0.629343629343629,57.5555555555556,7
251,9,326,0.629343629343629,57.5555555555556,7
252,9,326,0.629343629343629,57.5555555555556,7
253,9,326,0.629343629343629,57.5555555555556,7
254,9,326,0.629343629343629,57.5555555555556,7
255,9,326,0.629343629343629,57.5555555555556,7
256,9,326,0.629343629343629,57.5555555555556,7
257,9,326,0.629343629343629,57.5555555555556,7
258,9,326,0.629343629343629,57.5555555555556,7
259,9,326,0.629343629343629,57.5555555555556,7
260,9,326,0.629343629343629,57.5555555555556,7
261,9,326,0.629343629343629,57.5555555555556,7
262,9,326,0.629343629343629,57.5555555555556,7
263,9,326,0.629343629343629,57.5555555555556,7
264,9,326,0.629343629343629,57.5555555555556,7
265,9,326,0.629343629343629,57.5555555555556,7
266,9,326,0.629343629343629,57.5555555555556,7
267,9,326,0.629343629343629,57.5555555555556,7
268,9,326,0.629343629343629,57.5555555555556,7
269,9,326,0.629343629343629,57.5555555555556,7
270,9,326,0.629343629343629,57.5555555555556,7
271,9,326,0.629343629343629,57.5555555555556,7
272,9,326,0.629343629343629,57.5555555555556,7
273,9,326,0.629343629343629,57.5555555555556,7
274,9,326,0.629343629343629,57.5555555555556,7
275,9,326,0.629343629343629,57.5555555555556,7
276,9,326,0.629343629343629,57.5555555555556,7
277,9,326,0.629343629343629,57.5555555555556,7
278,9,326,0.629343629343629,57.5555555555556,7
279,9,326,0.629343629343629,57.5555555555556,7
280,9,326,0.629343629343629,57.5555555555556,7
281,9,326,0.629343629343629,57.5555555555556,7
282,9,326,0.629343629343629,57.5555555555556,7
283,9,326,0.629343629343629,57.5555555555556,7
284,9,326,0.629343629343629,57.5555555555556,7
285,9,326,0.629343629343629,57.5555555555556,7
286,9,326,0.629343629343629,57.5555555555556,7
287,9,326,0.629343629343629,57.5555555555556,7
288,9,326,0.629343629343629,57.5555555555556,7
289,9,326,0.629343629343629,57.5555555555556,7
290,9,326,0.629343629343629,57.5555555555556,7
291,9,326,0.629343629343629,57.5555555555556,7
292,9,326,0.629343629343629,57.5555555555556,7
293,9,326,0.629343629343629,57.5555555555556,7
294,9,326,0.629343629343629,57.5555555555556,7
295,9,326,0.629343629343629,57.5555555555556,7
296,9,326,0.629343629343629,57.5555555555556,7
297,9,326,0.629343629343629,57.5555555555556,7
298,9,326,0.629343629343629,57.5555555555556,7
299,9,326,0.629343629343629,57.5555555555556,7
300,9,326,0.629343629343629,57.5555555555556,7
301,9,326,0.629343629343629,57.5555555555556,7
302,8,326,0.629343629343629,64.75,11.5
303,8,326,0.629343629343629,64.75,11.5
304,8,326,0.629343629343629,64.75,11.5
305,8,326,0.629343629343629,64.75,11.5
306,8,326,0.629343629343629,64.75,11.5
307,8,326,0.629343629343629,64.75,11.5
308,8,326,0.629343629343629,64.75,11.5
309,8,326,0.629343629343629,64.75,11.5
310,8,326,0.629343629343629,64.75,11.5
311,8,326,0.629343629343629,64.75,11.5
312,8,326,0.629343629343629,64.75,11.5
313,8,326,0.629343629343629,64.75,11.5
314,8,326,0.629343629343629,64.75,11.5
315,8,326,0.629343629343629,64.75,11.5
316,8,326,0.629343629343629,64.75,11.5
317,8,326,0.629343629343629,64.75,11.5
318,7,327,0.631274131274131,74,16
319,7,327,0.631274131274131,74,16
320,7,327,0.631274131274131,74,16
321,7,327,0.631274131274131,74,16
322,7,327,0.631274131274131,74,16
323,7,327,0.631274131274131,74,16
324,7,327,0.631274131274131,74,16
325,7,327,0.631274131274131,74,16
326,7,327,0.631274131274131,74,16
327,7,327,0.631274131274131,74,16
328,7,327,0.631274131274131,74,16
329,7,327,0.631274131274131,74,16
330,7,327,0.631274131274131,74,16
331,7,327,0.631274131274131,74,16
332,7,327,0.631274131274131,74,16
333,7,327,0.631274131274131,74,16
334,7,327,0.631274131274131,74,16
335,7,327,0.631274131274131,74,16
336,7,327,0.631274131274131,74,16
337,7,327,0.631274131274131,74,16
338,7,327,0.631274131274131,74,16
339,7,327,0.631274131274131,74,16
340,7,327,0.631274131274131,74,16
341,7,327,0.631274131274131,74,16
342,7,327,0.631274131274131,74,16
343,7,327,0.631274131274131,74,16
344,7,327,0.631274131274131,74,16
345,7,327,0.631274131274131,74,16
346,7,327,0.631274131274131,74,16
347,7,327,0.631274131274131,74,16
348,7,327,0.631274131274131,74,16
349,7,327,0.631274131274131,74,16
350,7,327,0.631274131274131,74,16
351,7,327,0.631274131274131,74,16
352,7,327,0.631274131274131,74,16
353,7,327,0.631274131274131,74,16
354,7,327,0.631274131274131,74,16
355,7,327,0.631274131274131,74,16
356,7,327,0.631274131274131,74,16
357,7,327,0.631274131274131,74,16
358,7,327,0.631274131274131,74,16
359,7,327,0.631274131274131,74,16
360,7,327,0.631274131274131,74,16
361,7,327,0.631274131274131,74,16
362,7,327,0.631274131274131,74,16
363,7,327,0.631274131274131,74,16
364,7,327,0.631274131274131,74,16
365,7,327,0.631274131274131,74,16
366,7,327,0.631274131274131,74,16
367,7,327,0.631274131274131,74,16
368,7,327,0.631274131274131,74,16
369,7,327,0.631274131274131,74,16
370,7,327,0.631274131274131,74,16
371,7,327,0.631274131274131,74,16
372,7,327,0.631274131274131,74,16
373,6,327,0.631274131274131,86.3333333333333,11.5
374,6,327,0.631274131274131,86.3333333333333,11.5
375,6,327,0.631274131274131,86.3333333333333,11.5
376,6,327,0.631274131274131,86.3333333333333,11.5
377,6,327,0.631274131274131,86.3333333333333,11.5
378,6,327,0.631274131274131,86.3333333333333,11.5
379,6,327,0.631274131274131,86.3333333333333,11.5
380,6,327,0.631274131274131,86.3333333333333,11.5
381,6,327,0.631274131274131,86.3333333333333,11.5
382,6,327,0.631274131274131,86.3333333333333,11.5
383,6,327,0.631274131274131,86.3333333333333,11.5
384,6,327,0.631274131274131,86.3333333333333,11.5
385,6,327,0.631274131274131,86.3333333333333,11.5
386,6,327,0.631274131274131,86.3333333333333,11.5
387,6,327,0.631274131274131,86.3333333333333,11.5
388,6,327,0.631274131274131,86.3333333333333,11.5
389,6,327,0.631274131274131,86.3333333333333,11.5
390,6,327,0.631274131274131,86.3333333333333,11.5
391,6,327,0.631274131274131,86.3333333333333,11.5
392,6,327,0.631274131274131,86.3333333333333,11.5
393,6,327,0.631274131274131,86.3333333333333,11.5
394,6,327,0.631274131274131,86.3333333333333,11.5
395,6,327,0.631274131274131,86.3333333333333,11.5
396,6,327,0.631274131274131,86.3333333333333,11.5
397,6,327,0.631274131274131,86.3333333333333,11.5
398,6,327,0.631274131274131,86.3333333333333,11.5
399,6,327,0.631274131274131,86.3333333333333,11.5
400,6,327,0.631274131274131,86.3333333333333,11.5
401,6,327,0.631274131274131,86.3333333333333,11.5
402,6,327,0.631274131274131,86.3333333333333,11.5
403,6,327,0.631274131274131,86.3333333333333,11.5
404,6,327,0.631274131274131,86.3333333333333,11.5
405,6,327,0.631274131274131,86.3333333333333,11.5
406,6,327,0.631274131274131,86.3333333333333,11.5
407,6,327,0.631274131274131,86.3333333333333,11.5
408,6,327,0.631274131274131,86.3333333333333,11.5
409,6,327,0.631274131274131,86.3333333333333,11.5
410,6,327,0.631274131274131,86.3333333333333,11.5
411,6,327,0.631274131274131,86.3333333333333,11.5
412,6,327,0.631274131274131,86.3333333333333,11.5
413,6,327,0.631274131274131,86.3333333333333,11.5
414,6,327,0.631274131274131,86.3333333333333,11.5
415,6,327,0.631274131274131,86.3333333333333,11.5
416,6,327,0.631274131274131,86.3333333333333,11.5
417,6,327,0.631274131274131,86.3333333333333,11.5
418,6,327,0.631274131274131,86.3333333333333,11.5
419,6,327,0.631274131274131,86.3333333333333,11.5
420,6,327,0.631274131274131,86.3333333333333,11.5
421,6,327,0.631274131274131,86.3333333333333,11.5
422,6,327,0.631274131274131,86.3333333333333,11.5
423,6,327,0.631274131274131,86.3333333333333,11.5
424,6,327,0.631274131274131,86.3333333333333,11.5
425,6,327,0.631274131274131,86.3333333333333,11.5
426,6,327,0.631274131274131,86.3333333333333,11.5
427,6,327,0.631274131274131,86.3333333333333,11.5
428,6,327,0.631274131274131,86.3333333333333,11.5
429,6,327,0.631274131274131,86.3333333333333,11.5
430,6,327,0.631274131274131,86.3333333333333,11.5
431,6,327,0.631274131274131,86.3333333333333,11.5
432,6,327,0.631274131274131,86.3333333333333,11.5
433,6,327,0.631274131274131,86.3333333333333,11.5
434,6,327,0.631274131274131,86.3333333333333,11.5
435,6,327,0.631274131274131,86.3333333333333,11.5
436,6,327,0.631274131274131,86.3333333333333,11.5
437,6,327,0.631274131274131,86.3333333333333,11.5
438,6,327,0.631274131274131,86.3333333333333,11.5
439,6,327,0.631274131274131,86.3333333333333,11.5
440,6,327,0.631274131274131,86.3333333333333,11.5
441,6,327,0.631274131274131,86.3333333333333,11.5
442,6,327,0.631274131274131,86.3333333333333,11.5
443,6,327,0.631274131274131,86.3333333333333,11.5
444,6,327,0.631274131274131,86.3333333333333,11.5
445,6,327,0.631274131274131,86.3333333333333,11.5
446,6,327,0.631274131274131,86.3333333333333,11.5
447,6,327,0.631274131274131,86.3333333333333,11.5
448,6,327,0.631274131274131,86.3333333333333,11.5
449,6,327,0.631274131274131,86.3333333333333,11.5
450,6,327,0.631274131274131,86.3333333333333,11.5
451,6,327,0.631274131274131,86.3333333333333,11.5
452,6,327,0.631274131274131,86.3333333333333,11.5
453,6,327,0.631274131274131,86.3333333333333,11.5
454,6,327,0.631274131274131,86.3333333333333,11.5
