radius,num_clust,max_clust_size,max_normalized,mean_clust_size,median_clust_size
2,682,17,0.0168986083499006,1.47507331378299,1
3,446,139,0.13817097415507,2.25560538116592,1
4,347,300,0.298210735586481,2.89913544668588,1
5,287,347,0.34493041749503,3.50522648083624,1
6,257,355,0.352882703777336,3.91439688715953,1
7,225,379,0.376739562624254,4.47111111111111,1
8,207,379,0.376739562624254,4.85990338164251,2
9,187,379,0.376739562624254,5.37967914438503,2
10,166,386,0.383697813121272,6.06024096385542,2
11,153,387,0.384691848906561,6.57516339869281,2
12,133,389,0.386679920477137,7.56390977443609,2
13,120,392,0.389662027833002,8.38333333333333,2
14,108,392,0.389662027833002,9.31481481481481,2
15,92,392,0.389662027833002,10.9347826086957,2
16,82,427,0.424453280318091,12.2682926829268,2
17,77,427,0.424453280318091,13.0649350649351,2
18,74,427,0.424453280318091,13.5945945945946,2.5
19,69,427,0.424453280318091,14.5797101449275,3
20,64,427,0.424453280318091,15.71875,2
21,59,428,0.42544731610338,17.0508474576271,3
22,54,428,0.42544731610338,18.6296296296296,3
23,50,428,0.42544731610338,20.12,3.5
24,46,428,0.42544731610338,21.8695652173913,4
25,43,428,0.42544731610338,23.3953488372093,4
26,39,428,0.42544731610338,25.7948717948718,4
27,37,428,0.42544731610338,27.1891891891892,4
28,36,428,0.42544731610338,27.9444444444444,4
29,36,428,0.42544731610338,27.9444444444444,4
30,35,428,0.42544731610338,28.7428571428571,4
31,34,428,0.42544731610338,29.5882352941176,4
32,32,428,0.42544731610338,31.4375,4
33,30,428,0.42544731610338,33.5333333333333,4
34,30,428,0.42544731610338,33.5333333333333,4
35,28,432,0.429423459244533,35.9285714285714,4
36,27,432,0.429423459244533,37.2592592592593,4
37,26,432,0.429423459244533,38.6923076923077,5
38,26,432,0.429423459244533,38.6923076923077,5
39,25,432,0.429423459244533,40.24,6
40,24,432,0.429423459244533,41.9166666666667,6
41,24,432,0.429423459244533,41.9166666666667,6
42,24,432,0.429423459244533,41.9166666666667,6
43,24,432,0.429423459244533,41.9166666666667,6
44,24,432,0.429423459244533,41.9166666666667,6
45,24,432,0.429423459244533,41.9166666666667,6
46,23,432,0.429423459244533,43.7391304347826,6
47,23,432,0.429423459244533,43.7391304347826,6
48,23,432,0.429423459244533,43.7391304347826,6
49,23,432,0.429423459244533,43.7391304347826,6
50,23,432,0.429423459244533,43.7391304347826,6
51,23,432,0.429423459244533,43.7391304347826,6
52,23,432,0.429423459244533,43.7391304347826,6
53,23,432,0.429423459244533,43.7391304347826,6
54,23,432,0.429423459244533,43.7391304347826,6
55,22,432,0.429423459244533,45.7272727272727,5
56,21,432,0.429423459244533,47.9047619047619,6
57,21,432,0.429423459244533,47.9047619047619,6
58,20,432,0.429423459244533,50.3,7.5
59,20,432,0.429423459244533,50.3,7.5
60,20,432,0.429423459244533,50.3,7.5
61,20,432,0.429423459244533,50.3,7.5
62,19,432,0.429423459244533,52.9473684210526,10
63,19,432,0.429423459244533,52.9473684210526,10
64,18,432,0.429423459244533,55.8888888888889,10
65,17,494,0.491053677932406,59.1764705882353,10
66,17,494,0.491053677932406,59.1764705882353,10
67,17,494,0.491053677932406,59.1764705882353,10
68,16,494,0.491053677932406,62.875,10
69,16,494,0.491053677932406,62.875,10
70,16,494,0.491053677932406,62.875,10
71,16,494,0.491053677932406,62.875,10
72,16,494,0.491053677932406,62.875,10
73,16,494,0.491053677932406,62.875,10
74,16,494,0.491053677932406,62.875,10
75,16,494,0.491053677932406,62.875,10
76,16,494,0.491053677932406,62.875,10
77,16,494,0.491053677932406,62.875,10
78,16,494,0.491053677932406,62.875,10
79,16,494,0.491053677932406,62.875,10
80,16,494,0.491053677932406,62.875,10
81,16,494,0.491053677932406,62.875,10
82,16,494,0.491053677932406,62.875,10
83,16,494,0.491053677932406,62.875,10
84,16,494,0.491053677932406,62.875,10
85,16,494,0.491053677932406,62.875,10
86,16,494,0.491053677932406,62.875,10
87,16,494,0.491053677932406,62.875,10
88,15,624,0.620278330019881,67.0666666666667,10
89,15,624,0.620278330019881,67.0666666666667,10
90,15,624,0.620278330019881,67.0666666666667,10
91,15,624,0.620278330019881,67.0666666666667,10
92,15,624,0.620278330019881,67.0666666666667,10
93,15,624,0.620278330019881,67.0666666666667,10
94,15,624,0.620278330019881,67.0666666666667,10
95,15,624,0.620278330019881,67.0666666666667,10
96,15,624,0.620278330019881,67.0666666666667,10
97,15,624,0.620278330019881,67.0666666666667,10
98,15,624,0.620278330019881,67.0666666666667,10
99,15,624,0.620278330019881,67.0666666666667,10
100,15,624,0.620278330019881,67.0666666666667,10
101,15,624,0.620278330019881,67.0666666666667,10
102,15,624,0.620278330019881,67.0666666666667,10
103,15,624,0.620278330019881,67.0666666666667,10
104,15,624,0.620278330019881,67.0666666666667,10
105,15,624,0.620278330019881,67.0666666666667,10
106,15,624,0.620278330019881,67.0666666666667,10
107,15,624,0.620278330019881,67.0666666666667,10
108,15,624,0.620278330019881,67.0666666666667,10
109,15,624,0.620278330019881,67.0666666666667,10
110,15,624,0.620278330019881,67.0666666666667,10
111,15,624,0.620278330019881,67.0666666666667,10
112,15,624,0.620278330019881,67.0666666666667,10
113,15,624,0.620278330019881,67.0666666666667,10
114,15,624,0.620278330019881,67.0666666666667,10
115,15,624,0.620278330019881,67.0666666666667,10
116,15,624,0.620278330019881,67.0666666666667,10
117,15,624,0.620278330019881,67.0666666666667,10
118,15,624,0.620278330019881,67.0666666666667,10
119,15,624,0.620278330019881,67.0666666666667,10
120,15,624,0.620278330019881,67.0666666666667,10
121,15,624,0.620278330019881,67.0666666666667,10
122,15,624,0.620278330019881,67.0666666666667,10
123,15,624,0.620278330019881,67.0666666666667,10
124,15,624,0.620278330019881,67.0666666666667,10
125,15,624,0.620278330019881,67.0666666666667,10
126,15,624,0.620278330019881,67.0666666666667,10
127,15,624,0.620278330019881,67.0666666666667,10
128,15,624,0.620278330019881,67.0666666666667,10
129,15,624,0.620278330019881,67.0666666666667,10
130,15,624,0.620278330019881,67.0666666666667,10
131,14,624,0.620278330019881,71.8571428571429,10
132,14,624,0.620278330019881,71.8571428571429,10
133,14,624,0.620278330019881,71.8571428571429,10
134,14,624,0.620278330019881,71.8571428571429,10
135,14,624,0.620278330019881,71.8571428571429,10
136,13,644,0.640159045725646,77.3846153846154,10
137,12,644,0.640159045725646,83.8333333333333,10
138,12,644,0.640159045725646,83.8333333333333,10
139,12,644,0.640159045725646,83.8333333333333,10
140,11,654,0.650099403578529,91.4545454545455,10
141,11,654,0.650099403578529,91.4545454545455,10
142,11,654,0.650099403578529,91.4545454545455,10
143,11,654,0.650099403578529,91.4545454545455,10
144,10,655,0.651093439363817,100.6,11.5
145,10,655,0.651093439363817,100.6,11.5
146,10,655,0.651093439363817,100.6,11.5
147,10,655,0.651093439363817,100.6,11.5
148,10,655,0.651093439363817,100.6,11.5
149,10,655,0.651093439363817,100.6,11.5
150,10,655,0.651093439363817,100.6,11.5
151,10,655,0.651093439363817,100.6,11.5
152,10,655,0.651093439363817,100.6,11.5
153,10,655,0.651093439363817,100.6,11.5
154,10,655,0.651093439363817,100.6,11.5
155,10,655,0.651093439363817,100.6,11.5
156,10,655,0.651093439363817,100.6,11.5
157,10,655,0.651093439363817,100.6,11.5
158,10,655,0.651093439363817,100.6,11.5
159,10,655,0.651093439363817,100.6,11.5
160,10,655,0.651093439363817,100.6,11.5
161,10,655,0.651093439363817,100.6,11.5
162,10,655,0.651093439363817,100.6,11.5
163,10,655,0.651093439363817,100.6,11.5
164,10,655,0.651093439363817,100.6,11.5
165,10,655,0.651093439363817,100.6,11.5
166,10,655,0.651093439363817,100.6,11.5
167,10,655,0.651093439363817,100.6,11.5
168,10,655,0.651093439363817,100.6,11.5
169,10,655,0.651093439363817,100.6,11.5
170,10,655,0.651093439363817,100.6,11.5
171,10,655,0.651093439363817,100.6,11.5
172,9,655,0.651093439363817,111.777777777778,13
173,9,655,0.651093439363817,111.777777777778,13
174,9,655,0.651093439363817,111.777777777778,13
175,8,655,0.651093439363817,125.75,17
176,8,655,0.651093439363817,125.75,17
177,8,655,0.651093439363817,125.75,17
178,8,655,0.651093439363817,125.75,17
179,8,655,0.651093439363817,125.75,17
180,8,655,0.651093439363817,125.75,17
181,8,655,0.651093439363817,125.75,17
182,8,655,0.651093439363817,125.75,17
183,8,655,0.651093439363817,125.75,17
184,8,655,0.651093439363817,125.75,17
185,8,655,0.651093439363817,125.75,17
186,8,655,0.651093439363817,125.75,17
187,8,655,0.651093439363817,125.75,17
188,8,655,0.651093439363817,125.75,17
189,8,655,0.651093439363817,125.75,17
190,8,655,0.651093439363817,125.75,17
191,8,655,0.651093439363817,125.75,17
192,8,655,0.651093439363817,125.75,17
193,8,655,0.651093439363817,125.75,17
194,8,655,0.651093439363817,125.75,17
195,8,655,0.651093439363817,125.75,17
196,8,655,0.651093439363817,125.75,17
197,8,655,0.651093439363817,125.75,17
198,8,655,0.651093439363817,125.75,17
199,8,655,0.651093439363817,125.75,17
200,8,655,0.651093439363817,125.75,17
201,8,655,0.651093439363817,125.75,17
202,8,655,0.651093439363817,125.75,17
203,8,655,0.651093439363817,125.75,17
204,8,655,0.651093439363817,125.75,17
205,8,655,0.651093439363817,125.75,17
206,8,655,0.651093439363817,125.75,17
207,8,655,0.651093439363817,125.75,17
208,8,655,0.651093439363817,125.75,17
209,8,655,0.651093439363817,125.75,17
210,8,655,0.651093439363817,125.75,17
211,8,655,0.651093439363817,125.75,17
212,8,655,0.651093439363817,125.75,17
213,8,655,0.651093439363817,125.75,17
214,8,655,0.651093439363817,125.75,17
215,8,655,0.651093439363817,125.75,17
216,8,655,0.651093439363817,125.75,17
217,8,655,0.651093439363817,125.75,17
218,8,655,0.651093439363817,125.75,17
219,8,655,0.651093439363817,125.75,17
220,8,655,0.651093439363817,125.75,17
221,7,655,0.651093439363817,143.714285714286,10
222,7,655,0.651093439363817,143.714285714286,10
223,7,655,0.651093439363817,143.714285714286,10
224,7,655,0.651093439363817,143.714285714286,10
225,7,655,0.651093439363817,143.714285714286,10
226,7,655,0.651093439363817,143.714285714286,10
227,7,655,0.651093439363817,143.714285714286,10
228,7,655,0.651093439363817,143.714285714286,10
229,7,655,0.651093439363817,143.714285714286,10
230,7,655,0.651093439363817,143.714285714286,10
231,6,655,0.651093439363817,167.666666666667,47.5
232,6,655,0.651093439363817,167.666666666667,47.5
233,6,655,0.651093439363817,167.666666666667,47.5
234,6,655,0.651093439363817,167.666666666667,47.5
235,6,655,0.651093439363817,167.666666666667,47.5
236,6,655,0.651093439363817,167.666666666667,47.5
237,6,655,0.651093439363817,167.666666666667,47.5
238,6,655,0.651093439363817,167.666666666667,47.5
239,6,655,0.651093439363817,167.666666666667,47.5
240,6,655,0.651093439363817,167.666666666667,47.5
241,6,655,0.651093439363817,167.666666666667,47.5
242,6,655,0.651093439363817,167.666666666667,47.5
243,6,655,0.651093439363817,167.666666666667,47.5
244,6,655,0.651093439363817,167.666666666667,47.5
245,6,655,0.651093439363817,167.666666666667,47.5
246,6,655,0.651093439363817,167.666666666667,47.5
247,6,655,0.651093439363817,167.666666666667,47.5
248,6,655,0.651093439363817,167.666666666667,47.5
249,6,655,0.651093439363817,167.666666666667,47.5
250,6,655,0.651093439363817,167.666666666667,47.5
251,6,655,0.651093439363817,167.666666666667,47.5
252,6,655,0.651093439363817,167.666666666667,47.5
253,6,655,0.651093439363817,167.666666666667,47.5
254,6,655,0.651093439363817,167.666666666667,47.5
255,6,655,0.651093439363817,167.666666666667,47.5
256,6,655,0.651093439363817,167.666666666667,47.5
257,6,655,0.651093439363817,167.666666666667,47.5
258,6,655,0.651093439363817,167.666666666667,47.5
259,6,655,0.651093439363817,167.666666666667,47.5
260,6,655,0.651093439363817,167.666666666667,47.5
261,6,655,0.651093439363817,167.666666666667,47.5
262,6,655,0.651093439363817,167.666666666667,47.5
263,6,655,0.651093439363817,167.666666666667,47.5
264,6,655,0.651093439363817,167.666666666667,47.5
265,6,655,0.651093439363817,167.666666666667,47.5
266,6,655,0.651093439363817,167.666666666667,47.5
267,6,655,0.651093439363817,167.666666666667,47.5
268,6,655,0.651093439363817,167.666666666667,47.5
269,6,655,0.651093439363817,167.666666666667,47.5
270,6,655,0.651093439363817,167.666666666667,47.5
271,6,655,0.651093439363817,167.666666666667,47.5
272,6,655,0.651093439363817,167.666666666667,47.5
273,6,655,0.651093439363817,167.666666666667,47.5
274,6,655,0.651093439363817,167.666666666667,47.5
275,6,655,0.651093439363817,167.666666666667,47.5
276,6,655,0.651093439363817,167.666666666667,47.5
277,6,655,0.651093439363817,167.666666666667,47.5
278,6,655,0.651093439363817,167.666666666667,47.5
279,6,655,0.651093439363817,167.666666666667,47.5
280,6,655,0.651093439363817,167.666666666667,47.5
281,6,655,0.651093439363817,167.666666666667,47.5
282,6,655,0.651093439363817,167.666666666667,47.5
283,6,655,0.651093439363817,167.666666666667,47.5
284,6,655,0.651093439363817,167.666666666667,47.5
285,6,655,0.651093439363817,167.666666666667,47.5
286,6,655,0.651093439363817,167.666666666667,47.5
287,6,655,0.651093439363817,167.666666666667,47.5
288,6,655,0.651093439363817,167.666666666667,47.5
289,6,655,0.651093439363817,167.666666666667,47.5
290,6,655,0.651093439363817,167.666666666667,47.5
291,6,655,0.651093439363817,167.666666666667,47.5
292,6,655,0.651093439363817,167.666666666667,47.5
293,6,655,0.651093439363817,167.666666666667,47.5
294,6,655,0.651093439363817,167.666666666667,47.5
295,6,655,0.651093439363817,167.666666666667,47.5
296,6,655,0.651093439363817,167.666666666667,47.5
297,5,655,0.651093439363817,201.2,95
298,5,655,0.651093439363817,201.2,95
299,5,655,0.651093439363817,201.2,95
300,5,655,0.651093439363817,201.2,95
301,5,655,0.651093439363817,201.2,95
302,5,655,0.651093439363817,201.2,95
303,5,655,0.651093439363817,201.2,95
304,5,655,0.651093439363817,201.2,95
305,5,655,0.651093439363817,201.2,95
306,5,655,0.651093439363817,201.2,95
307,5,655,0.651093439363817,201.2,95
308,5,655,0.651093439363817,201.2,95
309,5,655,0.651093439363817,201.2,95
310,5,655,0.651093439363817,201.2,95
311,5,655,0.651093439363817,201.2,95
312,5,655,0.651093439363817,201.2,95
313,5,655,0.651093439363817,201.2,95
314,5,655,0.651093439363817,201.2,95
315,5,655,0.651093439363817,201.2,95
316,5,655,0.651093439363817,201.2,95
317,5,655,0.651093439363817,201.2,95
318,5,655,0.651093439363817,201.2,95
319,5,655,0.651093439363817,201.2,95
320,5,655,0.651093439363817,201.2,95
321,5,655,0.651093439363817,201.2,95
322,5,655,0.651093439363817,201.2,95
323,5,655,0.651093439363817,201.2,95
324,5,655,0.651093439363817,201.2,95
325,5,655,0.651093439363817,201.2,95
326,5,655,0.651093439363817,201.2,95
327,5,655,0.651093439363817,201.2,95
328,5,655,0.651093439363817,201.2,95
329,5,655,0.651093439363817,201.2,95
330,5,655,0.651093439363817,201.2,95
331,5,655,0.651093439363817,201.2,95
332,5,655,0.651093439363817,201.2,95
333,5,655,0.651093439363817,201.2,95
334,5,655,0.651093439363817,201.2,95
335,5,655,0.651093439363817,201.2,95
336,5,655,0.651093439363817,201.2,95
337,5,655,0.651093439363817,201.2,95
338,5,655,0.651093439363817,201.2,95
339,5,655,0.651093439363817,201.2,95
340,5,655,0.651093439363817,201.2,95
341,5,655,0.651093439363817,201.2,95
342,5,655,0.651093439363817,201.2,95
343,5,655,0.651093439363817,201.2,95
344,5,655,0.651093439363817,201.2,95
345,5,655,0.651093439363817,201.2,95
346,5,655,0.651093439363817,201.2,95
347,5,655,0.651093439363817,201.2,95
348,5,655,0.651093439363817,201.2,95
349,5,655,0.651093439363817,201.2,95
350,5,655,0.651093439363817,201.2,95
351,5,655,0.651093439363817,201.2,95
352,5,655,0.651093439363817,201.2,95
353,5,655,0.651093439363817,201.2,95
354,5,655,0.651093439363817,201.2,95
355,5,655,0.651093439363817,201.2,95
356,5,655,0.651093439363817,201.2,95
357,5,655,0.651093439363817,201.2,95
358,5,655,0.651093439363817,201.2,95
359,5,655,0.651093439363817,201.2,95
360,5,655,0.651093439363817,201.2,95
361,5,655,0.651093439363817,201.2,95
362,5,655,0.651093439363817,201.2,95
363,5,655,0.651093439363817,201.2,95
364,5,655,0.651093439363817,201.2,95
365,5,655,0.651093439363817,201.2,95
366,5,655,0.651093439363817,201.2,95
367,5,655,0.651093439363817,201.2,95
368,5,655,0.651093439363817,201.2,95
369,5,655,0.651093439363817,201.2,95
370,5,655,0.651093439363817,201.2,95
371,5,655,0.651093439363817,201.2,95
372,5,655,0.651093439363817,201.2,95
373,5,655,0.651093439363817,201.2,95
374,4,750,0.745526838966203,251.5,127.5
375,4,750,0.745526838966203,251.5,127.5
376,4,750,0.745526838966203,251.5,127.5
377,4,750,0.745526838966203,251.5,127.5
378,4,750,0.745526838966203,251.5,127.5
379,4,750,0.745526838966203,251.5,127.5
380,4,750,0.745526838966203,251.5,127.5
381,4,750,0.745526838966203,251.5,127.5
382,4,750,0.745526838966203,251.5,127.5
383,4,750,0.745526838966203,251.5,127.5
384,4,750,0.745526838966203,251.5,127.5
385,4,750,0.745526838966203,251.5,127.5
386,4,750,0.745526838966203,251.5,127.5
387,4,750,0.745526838966203,251.5,127.5
388,4,750,0.745526838966203,251.5,127.5
389,4,750,0.745526838966203,251.5,127.5
390,4,750,0.745526838966203,251.5,127.5
391,4,750,0.745526838966203,251.5,127.5
392,4,750,0.745526838966203,251.5,127.5
393,4,750,0.745526838966203,251.5,127.5
394,4,750,0.745526838966203,251.5,127.5
395,4,750,0.745526838966203,251.5,127.5
396,4,750,0.745526838966203,251.5,127.5
397,4,750,0.745526838966203,251.5,127.5
398,4,750,0.745526838966203,251.5,127.5
399,4,750,0.745526838966203,251.5,127.5
400,4,750,0.745526838966203,251.5,127.5
401,4,750,0.745526838966203,251.5,127.5
402,4,750,0.745526838966203,251.5,127.5
403,4,750,0.745526838966203,251.5,127.5
404,4,750,0.745526838966203,251.5,127.5
405,4,750,0.745526838966203,251.5,127.5
406,4,750,0.745526838966203,251.5,127.5
407,4,750,0.745526838966203,251.5,127.5
408,4,750,0.745526838966203,251.5,127.5
409,4,750,0.745526838966203,251.5,127.5
410,4,750,0.745526838966203,251.5,127.5
411,4,750,0.745526838966203,251.5,127.5
412,4,750,0.745526838966203,251.5,127.5
413,4,750,0.745526838966203,251.5,127.5
414,4,750,0.745526838966203,251.5,127.5
415,4,750,0.745526838966203,251.5,127.5
416,4,750,0.745526838966203,251.5,127.5
417,4,750,0.745526838966203,251.5,127.5
418,4,750,0.745526838966203,251.5,127.5
419,4,750,0.745526838966203,251.5,127.5
420,4,750,0.745526838966203,251.5,127.5
421,4,750,0.745526838966203,251.5,127.5
422,4,750,0.745526838966203,251.5,127.5
423,4,750,0.745526838966203,251.5,127.5
424,4,750,0.745526838966203,251.5,127.5
425,4,750,0.745526838966203,251.5,127.5
426,4,750,0.745526838966203,251.5,127.5
427,4,750,0.745526838966203,251.5,127.5
428,4,750,0.745526838966203,251.5,127.5
429,4,750,0.745526838966203,251.5,127.5
430,4,750,0.745526838966203,251.5,127.5
431,4,750,0.745526838966203,251.5,127.5
432,4,750,0.745526838966203,251.5,127.5
433,4,750,0.745526838966203,251.5,127.5
434,4,750,0.745526838966203,251.5,127.5
435,4,750,0.745526838966203,251.5,127.5
436,4,750,0.745526838966203,251.5,127.5
437,4,750,0.745526838966203,251.5,127.5
438,4,750,0.745526838966203,251.5,127.5
439,4,750,0.745526838966203,251.5,127.5
440,4,750,0.745526838966203,251.5,127.5
441,4,750,0.745526838966203,251.5,127.5
442,4,750,0.745526838966203,251.5,127.5
443,4,750,0.745526838966203,251.5,127.5
444,4,750,0.745526838966203,251.5,127.5
445,4,750,0.745526838966203,251.5,127.5
446,4,750,0.745526838966203,251.5,127.5
447,4,750,0.745526838966203,251.5,127.5
448,4,750,0.745526838966203,251.5,127.5
449,4,750,0.745526838966203,251.5,127.5
450,4,750,0.745526838966203,251.5,127.5
451,4,750,0.745526838966203,251.5,127.5
452,4,750,0.745526838966203,251.5,127.5
453,4,750,0.745526838966203,251.5,127.5
454,4,750,0.745526838966203,251.5,127.5
455,4,750,0.745526838966203,251.5,127.5
456,4,750,0.745526838966203,251.5,127.5
457,4,750,0.745526838966203,251.5,127.5
458,4,750,0.745526838966203,251.5,127.5
459,4,750,0.745526838966203,251.5,127.5
460,4,750,0.745526838966203,251.5,127.5
461,4,750,0.745526838966203,251.5,127.5
462,4,750,0.745526838966203,251.5,127.5
463,4,750,0.745526838966203,251.5,127.5
464,4,750,0.745526838966203,251.5,127.5
465,4,750,0.745526838966203,251.5,127.5
466,4,750,0.745526838966203,251.5,127.5
467,4,750,0.745526838966203,251.5,127.5
